time (s)	det(V)
88487.088159	0.709694	
88487.090159	0.676246	
88487.092159	0.639274	
88487.096159	0.606976	
88487.100160	0.515671	
88487.102159	0.487488	
88487.104159	0.459444	
88487.106160	0.435133	
88487.108159	0.408957	
88487.110159	0.388829	
88487.112159	0.367175	
88487.116157	0.344471	
88487.120158	0.304388	
88487.122159	0.268649	
88487.124159	0.252163	
88487.126159	0.235098	
88487.128159	0.221197	
88487.130159	0.204167	
88487.132159	0.190623	
88487.136158	0.179169	
88487.140158	0.153259	
88487.142159	0.133863	
88487.144160	0.124672	
88487.146159	0.114462	
88487.148159	0.105350	
88487.150159	0.098767	
88487.152159	0.090874	
88487.156159	0.082690	
88487.160159	0.069111	
88487.162159	0.056652	
88487.164159	0.051832	
88487.166160	0.048394	
88487.168159	0.043079	
88487.170159	0.039028	
88487.172159	0.034921	
88487.174158	0.029867	
88487.180158	0.022047	
88487.182159	0.015923	
88487.184159	0.014828	
88487.186160	0.009913	
88487.188159	0.007495	
88487.190159	0.006606	
88487.192158	0.002118	
88487.194160	-0.000096	
88487.198157	-0.002568	
88487.200159	-0.005952	
88487.202159	-0.006204	
88487.204161	-0.007594	
88487.206158	-0.008576	
88487.208159	-0.011563	
88487.210158	-0.012121	
88487.212158	-0.014631	
88487.214159	-0.017290	
88487.218157	-0.017550	
88487.220159	-0.019560	
88487.222159	-0.018164	
88487.224159	-0.019898	
88487.226159	-0.021296	
88487.228159	-0.023311	
88487.230158	-0.022945	
88487.232159	-0.022988	
88487.234158	-0.022810	
88487.238157	-0.026548	
88487.240159	-0.026554	
88487.242159	-0.026702	
88487.244159	-0.026766	
88487.246159	-0.026659	
88487.248159	-0.028098	
88487.250159	-0.026919	
88487.254157	-0.027336	
88487.258157	-0.028321	
88487.260159	-0.029583	
88487.262159	-0.028057	
88487.264160	-0.029008	
88487.266164	-0.028139	
88487.268163	-0.028848	
88487.270163	-0.028017	
88487.272163	-0.028002	
88487.276163	-0.027996	
88487.280163	-0.029199	
88487.282161	-0.028471	
88487.284163	-0.026815	
88487.286163	-0.027294	
88487.288163	-0.026631	
88487.290164	-0.026264	
88487.292163	-0.026840	
88487.296162	-0.029545	
88487.300162	-0.027330	
88487.302163	-0.025856	
88487.304164	-0.025163	
88487.306163	-0.025026	
88487.308163	-0.024927	
88487.310163	-0.024330	
88487.312163	-0.027208	
88487.316163	-0.026756	
88487.320163	-0.025996	
88487.322163	-0.022232	
88487.324163	-0.022945	
88487.326164	-0.024564	
88487.328164	-0.021877	
88487.330163	-0.021771	
88487.332163	-0.024342	
88487.336162	-0.025072	
88487.340163	-0.023166	
88487.342163	-0.022232	
88487.344163	-0.021042	
88487.346162	-0.022203	
88487.348164	-0.020808	
88487.350163	-0.020990	
88487.352163	-0.022119	
88487.356169	-0.022688	
88487.360171	-0.021789	
88487.362171	-0.020939	
88487.364171	-0.020487	
88487.366176	-0.019015	
88487.368174	-0.019056	
88487.370175	-0.018313	
88487.372175	-0.018974	
88487.374175	-0.019365	
88487.378175	-0.020827	
88487.380175	-0.020028	
88487.382175	-0.020177	
88487.384175	-0.018206	
88487.386175	-0.017233	
88487.388175	-0.017212	
88487.390175	-0.018003	
88487.392175	-0.018235	
88487.394175	-0.019686	
88487.398173	-0.017648	
88487.400176	-0.017433	
88487.402175	-0.018258	
88487.404174	-0.015964	
88487.406175	-0.015773	
88487.408175	-0.015242	
88487.410176	-0.016381	
88487.414173	-0.015576	
88487.416175	-0.018041	
88487.418173	-0.016960	
88487.420175	-0.016165	
88487.422179	-0.015629	
88487.424178	-0.015502	
88487.426178	-0.013743	
88487.428177	-0.013451	
88487.430177	-0.013895	
88487.434175	-0.013591	
88487.438175	-0.015139	
88487.440177	-0.013725	
88487.442177	-0.013377	
88487.444177	-0.011480	
88487.446177	-0.012590	
88487.448177	-0.013144	
88487.450178	-0.011893	
88487.452177	-0.012522	
88487.456179	-0.011827	
88487.460181	-0.011825	
88487.462181	-0.011312	
88487.464185	-0.011334	
88487.466184	-0.009488	
88487.468183	-0.010087	
88487.470183	-0.008937	
88487.472183	-0.009263	
88487.474186	-0.010674	
88487.478194	-0.011424	
88487.480194	-0.011523	
88487.482194	-0.010338	
88487.484193	-0.008706	
88487.486194	-0.008692	
88487.488194	-0.008897	
88487.490193	-0.007289	
88487.492193	-0.006956	
88487.494194	-0.009441	
88487.496195	-0.008566	
88487.500193	-0.008192	
88487.502195	-0.009536	
88487.504192	-0.005625	
88487.506193	-0.006916	
88487.508193	-0.006645	
88487.510195	-0.007723	
88487.512193	-0.006972	
88487.516191	-0.008083	
88487.518193	-0.006657	
88487.522193	-0.006666	
88487.524193	-0.005674	
88487.526192	-0.005359	
88487.528193	-0.006229	
88487.530192	-0.005558	
88487.532192	-0.005048	
88487.534193	-0.003123	
88487.538193	-0.005560	
88487.542193	-0.004627	
88487.544191	-0.004866	
88487.546193	-0.004106	
88487.548193	-0.003314	
88487.550192	-0.004155	
88487.552193	-0.001949	
88487.556191	-0.002740	
88487.558193	-0.004277	
88487.562193	-0.002964	
88487.564192	-0.002464	
88487.566195	-0.000957	
88487.568193	-0.001566	
88487.570193	-0.001567	
88487.572193	-0.000860	
88487.574193	-0.002109	
88487.578193	-0.001157	
88487.582193	-0.001889	
88487.584193	0.000067	
88487.586193	-0.000455	
88487.588193	0.001922	
88487.590193	0.000610	
88487.592193	0.000823	
88487.594193	0.000416	
88487.598193	-0.001064	
88487.602193	-0.000089	
88487.604193	0.002473	
88487.606194	0.002135	
88487.608191	0.002937	
88487.610193	0.001426	
88487.612193	0.002422	
88487.616193	0.002341	
88487.620191	0.002141	
88487.622193	0.002729	
88487.624193	0.002406	
88487.626193	0.003744	
88487.628193	0.002250	
88487.630193	0.002803	
88487.632193	0.002474	
88487.634193	0.003701	
88487.638193	0.002411	
88487.640193	0.003343	
88487.642192	0.001722	
88487.644195	0.002767	
88487.646194	0.003889	
88487.648193	0.003720	
88487.650194	0.004491	
88487.652193	0.004178	
88487.654193	0.003815	
88487.658197	0.002654	
88487.662198	0.001958	
88487.664197	0.002466	
88487.666199	0.004130	
88487.668197	0.002957	
88487.670196	0.003135	
88487.672196	0.003819	
88487.674199	0.002421	
88487.678196	0.000254	
88487.682197	-0.000294	
88487.684197	0.000262	
88487.686196	0.000947	
88487.688197	0.001287	
88487.690197	0.000188	
88487.692197	-0.000030	
88487.694197	-0.001050	
88487.698206	-0.003178	
88487.702207	-0.002626	
88487.704207	-0.004202	
88487.706209	-0.004571	
88487.708207	-0.005025	
88487.710207	-0.005118	
88487.712207	-0.008361	
88487.714207	-0.009660	
88487.718205	-0.011875	
88487.722206	-0.014243	
88487.724209	-0.015025	
88487.726208	-0.017983	
88487.728207	-0.020130	
88487.730206	-0.021859	
88487.732207	-0.023361	
88487.734207	-0.026718	
88487.738207	-0.029835	
88487.742207	-0.034303	
88487.744207	-0.040579	
88487.746208	-0.043794	
88487.748207	-0.046872	
88487.750207	-0.050083	
88487.752207	-0.053933	
88487.754206	-0.059249	
88487.758207	-0.063191	
88487.762212	-0.075325	
88487.764212	-0.085527	
88487.766213	-0.090713	
88487.768213	-0.096032	
88487.770213	-0.104747	
88487.772213	-0.110416	
88487.774213	-0.117720	
88487.776212	-0.129225	
88487.780213	-0.137853	
88487.782212	-0.156400	
88487.784213	-0.165753	
88487.786213	-0.175615	
88487.788213	-0.185797	
88487.790213	-0.197955	
88487.792214	-0.209723	
88487.796211	-0.224095	
88487.798213	-0.255439	
88487.800213	-0.268187	
88487.802212	-0.284118	
88487.804213	-0.299151	
88487.806212	-0.315938	
88487.808214	-0.333424	
88487.810213	-0.353148	
88487.812213	-0.372908	
88487.816212	-0.393539	
88487.820212	-0.433642	
88487.822213	-0.477412	
88487.824212	-0.500267	
88487.826214	-0.525782	
88487.828213	-0.553142	
88487.830213	-0.579036	
88487.832213	-0.605291	
88487.834213	-0.634724	
88487.838212	-0.665593	
88487.842213	-0.723553	
88487.844215	-0.787841	
88487.846213	-0.820620	
88487.848213	-0.855149	
88487.850213	-0.887433	
88487.852212	-0.920993	
88487.856212	-0.955676	
88487.860211	-1.025715	
88487.862213	-1.094694	
88487.864214	-1.127915	
88487.866213	-1.160438	
88487.868213	-1.193536	
88487.870213	-1.225891	
88487.872213	-1.254034	
88487.874213	-1.280865	
88487.878213	-1.312143	
88487.880213	-1.367139	
88487.882213	-1.390997	
88487.884215	-1.412255	
88487.886214	-1.431170	
88487.888213	-1.449002	
88487.890213	-1.465480	
88487.892212	-1.480767	
88487.894213	-1.489837	
88487.898213	-1.498273	
88487.900213	-1.506829	
88487.902213	-1.505299	
88487.904217	-1.499583	
88487.906213	-1.492768	
88487.908212	-1.482834	
88487.910213	-1.468661	
88487.912214	-1.451912	
88487.916211	-1.433418	
88487.920211	-1.385993	
88487.922213	-1.326710	
88487.924213	-1.294565	
88487.926213	-1.261804	
88487.928213	-1.227585	
88487.930213	-1.190067	
88487.932213	-1.149547	
88487.936211	-1.106682	
88487.940211	-1.016763	
88487.942213	-0.925049	
88487.944213	-0.873629	
88487.946213	-0.823704	
88487.948213	-0.776157	
88487.950212	-0.725904	
88487.952213	-0.673726	
88487.954213	-0.620521	
88487.958223	-0.572780	
88487.962223	-0.469808	
88487.964222	-0.372711	
88487.966224	-0.321284	
88487.968222	-0.269805	
88487.970224	-0.215544	
88487.972222	-0.166159	
88487.974223	-0.118873	
88487.978225	-0.069435	
88487.982226	0.033599	
88487.984227	0.130805	
88487.986227	0.181215	
88487.988227	0.229936	
88487.990227	0.275124	
88487.992227	0.321481	
88487.994227	0.368869	
88487.998227	0.407790	
88488.002227	0.496736	
88488.004227	0.592283	
88488.006227	0.636083	
88488.008227	0.677877	
88488.010227	0.722867	
88488.012227	0.768064	
88488.014228	0.810598	
88488.018227	0.850593	
88488.022227	0.937210	
88488.024227	1.016974	
88488.026227	1.056571	
88488.028227	1.095994	
88488.030227	1.132209	
88488.032228	1.167600	
88488.034227	1.202630	
88488.038227	1.228716	
88488.040227	1.286918	
88488.042227	1.312462	
88488.044230	1.342305	
88488.046230	1.363925	
88488.048226	1.383614	
88488.050227	1.400625	
88488.052227	1.415563	
88488.054227	1.429851	
88488.058226	1.438574	
88488.062226	1.451471	
88488.064227	1.452503	
88488.068225	1.444209	
88488.070227	1.435907	
88488.072227	1.423577	
88488.074227	1.409006	
88488.078227	1.393085	
88488.080227	1.352451	
88488.082226	1.328782	
88488.084231	1.305805	
88488.086227	1.277142	
88488.088227	1.248049	
88488.090227	1.220814	
88488.092227	1.192460	
88488.094227	1.160530	
88488.096228	1.123084	
88488.100227	1.088440	
88488.102227	1.018280	
88488.104227	0.982475	
88488.106227	0.946597	
88488.108226	0.910760	
88488.110226	0.875134	
88488.112227	0.837835	
88488.114227	0.804124	
88488.116227	0.768401	
88488.120231	0.733140	
88488.122233	0.667829	
88488.124233	0.637543	
88488.126233	0.606506	
88488.128233	0.575950	
88488.130235	0.547594	
88488.132233	0.520069	
88488.136231	0.492729	
88488.140231	0.439420	
88488.142233	0.393178	
88488.144234	0.375911	
88488.146232	0.355692	
88488.148233	0.335263	
88488.150233	0.316979	
88488.152234	0.296001	
88488.154233	0.278147	
88488.158232	0.260802	
88488.160233	0.228721	
88488.162233	0.212646	
88488.164236	0.200386	
88488.166235	0.188304	
88488.168236	0.176348	
88488.170235	0.163690	
88488.172235	0.152248	
88488.174235	0.141301	
88488.176234	0.127411	
88488.180235	0.119007	
88488.182235	0.100758	
88488.184235	0.093711	
88488.186235	0.086046	
88488.188235	0.079113	
88488.190235	0.071157	
88488.192235	0.064187	
88488.194235	0.060413	
88488.196235	0.051176	
88488.200233	0.045807	
88488.202235	0.034314	
88488.204235	0.031588	
88488.206235	0.029035	
88488.208235	0.025018	
88488.210235	0.019257	
88488.212235	0.016158	
88488.216233	0.012844	
88488.218235	0.004317	
88488.220235	0.001868	
88488.222237	-0.000058	
88488.224236	-0.001760	
88488.226235	-0.004933	
88488.228235	-0.003333	
88488.230235	-0.008744	
88488.232235	-0.009836	
88488.236233	-0.011306	
88488.240233	-0.015911	
88488.242235	-0.019830	
88488.244235	-0.020197	
88488.246235	-0.020561	
88488.248235	-0.021874	
88488.250234	-0.022064	
88488.252236	-0.022980	
88488.254237	-0.024690	
88488.258234	-0.026281	
88488.262235	-0.028863	
88488.264235	-0.028567	
88488.266235	-0.028319	
88488.268235	-0.028343	
88488.270235	-0.028459	
88488.272235	-0.028505	
88488.274234	-0.028827	
88488.278235	-0.032476	
88488.280235	-0.031993	
88488.282235	-0.032460	
88488.284236	-0.030855	
88488.286235	-0.030010	
88488.288234	-0.029540	
88488.290235	-0.030568	
88488.292234	-0.032350	
88488.294235	-0.029973	
88488.296234	-0.032673	
88488.300234	-0.031666	
88488.302235	-0.031720	
88488.304235	-0.030089	
88488.306234	-0.029682	
88488.308235	-0.030395	
88488.310235	-0.030328	
88488.312235	-0.031146	
88488.314235	-0.029484	
88488.316238	-0.031015	
88488.320245	-0.030422	
88488.322245	-0.030005	
88488.324245	-0.029853	
88488.326247	-0.029462	
88488.328246	-0.028994	
88488.330245	-0.028448	
88488.332245	-0.029221	
88488.334243	-0.026860	
88488.336245	-0.029589	
88488.340246	-0.029330	
88488.342246	-0.030208	
88488.344245	-0.027630	
88488.346245	-0.027182	
88488.348246	-0.027443	
88488.350246	-0.028010	
88488.352246	-0.027149	
88488.354251	-0.026552	
88488.356250	-0.028358	
88488.358251	-0.028565	
88488.362251	-0.026855	
88488.364251	-0.026759	
88488.366253	-0.025173	
88488.368250	-0.025357	
88488.370253	-0.024577	
88488.372251	-0.024205	
88488.374251	-0.025251	
88488.376251	-0.024665	
88488.380261	-0.026338	
88488.382264	-0.025440	
88488.384260	-0.024201	
88488.386261	-0.022882	
88488.388262	-0.023484	
88488.390261	-0.021583	
88488.392261	-0.022017	
88488.394261	-0.023372	
88488.396262	-0.022418	
88488.400260	-0.023828	
88488.404261	-0.021909	
88488.406261	-0.019903	
88488.408261	-0.019302	
88488.410261	-0.021539	
88488.412262	-0.022282	
88488.414261	-0.019400	
88488.416260	-0.020703	
88488.420261	-0.022286	
88488.424261	-0.020122	
88488.426262	-0.018949	
88488.428261	-0.018969	
88488.430261	-0.018899	
88488.432261	-0.018341	
88488.434261	-0.016746	
88488.436261	-0.016537	
88488.440271	-0.018337	
88488.444271	-0.018175	
88488.446271	-0.015968	
88488.448271	-0.015106	
88488.450271	-0.014905	
88488.452271	-0.016038	
88488.454278	-0.015640	
88488.458271	-0.014679	
88488.460273	-0.016320	
88488.464273	-0.016931	
88488.466274	-0.013247	
88488.468273	-0.014206	
88488.470273	-0.013184	
88488.472273	-0.014704	
88488.474275	-0.012653	
88488.478272	-0.013684	
88488.482271	-0.014993	
88488.484275	-0.013650	
88488.486273	-0.011632	
88488.488276	-0.012547	
88488.490273	-0.011205	
88488.492273	-0.011729	
88488.494273	-0.011919	
88488.496273	-0.012079	
88488.500285	-0.011782	
88488.504285	-0.013324	
88488.506285	-0.011541	
88488.508285	-0.010456	
88488.510285	-0.011196	
88488.512285	-0.010652	
88488.514284	-0.009724	
88488.516285	-0.010118	
88488.520285	-0.009932	
88488.524285	-0.009643	
88488.526285	-0.008747	
88488.528286	-0.008307	
88488.530285	-0.008953	
88488.532285	-0.008029	
88488.534285	-0.006789	
88488.536284	-0.008389	
88488.540292	-0.009368	
88488.544292	-0.008761	
88488.546293	-0.006353	
88488.548293	-0.005578	
88488.550293	-0.005719	
88488.552294	-0.005716	
88488.554293	-0.004453	
88488.556295	-0.004586	
88488.560293	-0.005906	
88488.562293	-0.006649	
88488.564293	-0.006030	
88488.566295	-0.004996	
88488.568295	-0.003687	
88488.570295	-0.002667	
88488.572295	-0.003507	
88488.574295	-0.002827	
88488.576295	-0.003115	
88488.578299	-0.005463	
88488.582302	-0.004588	
88488.584301	-0.003044	
88488.586301	-0.002967	
88488.588301	-0.001000	
88488.590301	-0.002131	
88488.592302	-0.002321	
88488.594305	-0.002174	
88488.598301	-0.001725	
88488.600303	-0.000911	
88488.602303	-0.001636	
88488.604302	-0.000578	
88488.606304	-0.000372	
88488.608303	-0.000646	
88488.610303	0.000282	
88488.612303	-0.000072	
88488.614302	-0.000777	
88488.618302	0.002580	
88488.622301	-0.001029	
88488.624303	0.000135	
88488.626303	0.000172	
88488.628303	0.001643	
88488.630303	0.001587	
88488.632303	0.001720	
88488.634302	0.003240	
88488.638301	0.001672	
88488.640303	0.001315	
88488.644303	0.001991	
88488.646303	0.001742	
88488.648303	0.002994	
88488.650303	0.004841	
88488.652302	0.003576	
88488.654303	0.004714	
88488.656304	0.004203	
88488.660303	0.003168	
88488.662303	0.003832	
88488.664303	0.002967	
88488.666305	0.005425	
88488.668305	0.005447	
88488.670305	0.005671	
88488.672305	0.005706	
88488.674305	0.004968	
88488.676306	0.006723	
88488.678306	0.004632	
88488.682305	0.004416	
88488.684305	0.006054	
88488.686305	0.007258	
88488.688304	0.007700	
88488.690304	0.007327	
88488.692305	0.006448	
88488.694305	0.006133	
88488.696305	0.007062	
88488.698306	0.005021	
88488.700303	0.005603	
88488.704305	0.005499	
88488.706305	0.006402	
88488.708304	0.006818	
88488.710306	0.007597	
88488.712305	0.006697	
88488.714305	0.004161	
88488.716305	0.006908	
88488.718304	0.004578	
88488.722306	0.005136	
88488.724305	0.003334	
88488.726304	0.002989	
88488.728306	0.003196	
88488.730307	0.003349	
88488.732307	0.002618	
88488.734305	0.001655	
88488.736305	0.001552	
88488.738305	0.002698	
88488.742303	-0.001070	
88488.746305	-0.003539	
88488.748305	-0.004810	
88488.750306	-0.004853	
88488.752305	-0.006598	
88488.754306	-0.008684	
88488.756307	-0.009410	
88488.758309	-0.012227	
88488.760306	-0.017019	
88488.764307	-0.018134	
88488.766307	-0.021361	
88488.768307	-0.023370	
88488.770307	-0.024571	
88488.772307	-0.028657	
88488.774307	-0.032987	
88488.776307	-0.033629	
88488.778307	-0.036793	
88488.780307	-0.042482	
88488.782314	-0.045821	
88488.786308	-0.051810	
88488.788309	-0.055942	
88488.790309	-0.058981	
88488.792309	-0.065194	
88488.794309	-0.069868	
88488.796309	-0.075358	
88488.800307	-0.079867	
88488.802309	-0.092821	
88488.804308	-0.100280	
88488.806308	-0.107161	
88488.808311	-0.114284	
88488.810309	-0.120131	
88488.812309	-0.129358	
88488.814309	-0.138510	
88488.816309	-0.146125	
88488.820307	-0.156508	
88488.822309	-0.178117	
88488.826309	-0.191030	
88488.828309	-0.214095	
88488.830309	-0.227829	
88488.832309	-0.242125	
88488.834308	-0.255417	
88488.836309	-0.271578	
88488.838309	-0.288999	
88488.842309	-0.308163	
88488.844308	-0.345620	
88488.846308	-0.365921	
88488.848313	-0.386095	
88488.850310	-0.407084	
88488.852313	-0.430076	
88488.854314	-0.449920	
88488.856317	-0.475854	
88488.858319	-0.502426	
88488.862319	-0.532348	
88488.866318	-0.593447	
88488.868320	-0.654378	
88488.870317	-0.689608	
88488.872317	-0.725671	
88488.874319	-0.761098	
88488.876319	-0.800062	
88488.878319	-0.840449	
88488.882319	-0.880531	
88488.886320	-0.959221	
88488.888319	-1.040820	
88488.890319	-1.081880	
88488.892319	-1.125114	
88488.894319	-1.166457	
88488.896319	-1.208197	
88488.900317	-1.247684	
88488.902319	-1.322521	
88488.904319	-1.361087	
88488.906319	-1.398687	
88488.910319	-1.466223	
88488.912320	-1.497220	
88488.914319	-1.527644	
88488.916319	-1.553161	
88488.920318	-1.576158	
88488.922319	-1.617478	
88488.924319	-1.633670	
88488.928319	-1.643602	
88488.930319	-1.654961	
88488.932319	-1.656026	
88488.934318	-1.653661	
88488.936319	-1.649575	
88488.940317	-1.639534	
88488.942318	-1.615956	
88488.944319	-1.597045	
88488.948319	-1.574679	
88488.950320	-1.524306	
88488.952319	-1.493726	
88488.954320	-1.461241	
88488.956324	-1.429358	
88488.960323	-1.396445	
88488.962325	-1.319615	
88488.964325	-1.281159	
88488.968325	-1.247464	
88488.970325	-1.161648	
88488.972325	-1.119054	
88488.974325	-1.076132	
88488.976325	-1.031920	
88488.978325	-0.984664	
88488.980325	-0.941233	
88488.982325	-0.898600	
88488.986324	-0.854291	
88488.988325	-0.757912	
88488.990325	-0.713619	
88488.992325	-0.668586	
88488.994325	-0.619287	
88488.996325	-0.571616	
88488.998326	-0.527757	
88489.000325	-0.482523	
88489.002325	-0.438241	
88489.004324	-0.394396	
88489.008336	-0.350712	
88489.010337	-0.260032	
88489.012337	-0.209273	
88489.014337	-0.163422	
88489.016337	-0.118518	
88489.018336	-0.071846	
88489.020337	-0.020271	
88489.024335	0.028212	
88489.028335	0.117426	
88489.030337	0.217869	
88489.032337	0.264423	
88489.036335	0.363509	
88489.038337	0.408644	
88489.040337	0.454221	
88489.044335	0.502687	
88489.048335	0.607427	
88489.050338	0.702562	
88489.052337	0.756307	
88489.054337	0.810002	
88489.056337	0.856878	
88489.058339	0.904071	
88489.060339	0.956497	
88489.062336	1.006597	
88489.066338	1.053014	
88489.070338	1.145302	
88489.072339	1.232024	
88489.074339	1.271161	
88489.076339	1.311541	
88489.078339	1.353627	
88489.080339	1.388855	
88489.082338	1.420900	
88489.086339	1.451845	
88489.090339	1.514794	
88489.092338	1.559798	
88489.094339	1.579727	
88489.096339	1.594517	
