time (s)	det(V)
89764.334289	-1.151806	
89764.336291	-1.189077	
89764.338291	-1.224740	
89764.342287	-1.256759	
89764.346287	-1.320001	
89764.348289	-1.379891	
89764.350289	-1.405691	
89764.352290	-1.429909	
89764.354289	-1.454888	
89764.356290	-1.474627	
89764.358289	-1.491971	
89764.362287	-1.508265	
89764.366287	-1.531349	
89764.368289	-1.541790	
89764.370290	-1.543007	
89764.372289	-1.540566	
89764.374290	-1.535056	
89764.376289	-1.529096	
89764.378289	-1.517064	
89764.382287	-1.503747	
89764.384290	-1.469390	
89764.386290	-1.448690	
89764.390289	-1.423635	
89764.392288	-1.366323	
89764.394289	-1.334192	
89764.396289	-1.300426	
89764.398289	-1.265297	
89764.402287	-1.232905	
89764.404289	-1.155558	
89764.406289	-1.111170	
89764.410288	-1.066951	
89764.412289	-0.972379	
89764.416287	-0.872272	
89764.418289	-0.823338	
89764.422287	-0.771906	
89764.424289	-0.665099	
89764.426290	-0.611803	
89764.430294	-0.557062	
89764.432293	-0.444839	
89764.434293	-0.393400	
89764.436293	-0.336754	
89764.438292	-0.280883	
89764.442291	-0.219983	
89764.444294	-0.106373	
89764.446293	-0.047554	
89764.450293	0.016263	
89764.452293	0.134742	
89764.454293	0.190936	
89764.456293	0.253030	
89764.458293	0.313684	
89764.460293	0.368278	
89764.462293	0.419745	
89764.464293	0.481415	
89764.466291	0.539283	
89764.470299	0.595230	
89764.472299	0.708041	
89764.474299	0.767146	
89764.476298	0.822139	
89764.478299	0.876146	
89764.480299	0.929362	
89764.482299	0.984215	
89764.484301	1.035306	
89764.488299	1.080606	
89764.490299	1.175507	
89764.492298	1.216087	
89764.494299	1.252008	
89764.496299	1.292482	
89764.498299	1.329246	
89764.500299	1.363740	
89764.502299	1.391580	
89764.504299	1.418198	
89764.508305	1.442482	
89764.512306	1.483602	
89764.514307	1.513462	
89764.516307	1.525060	
89764.518307	1.529962	
89764.520307	1.531073	
89764.522307	1.529361	
89764.524307	1.524987	
89764.526311	1.516791	
89764.530308	1.504967	
89764.532309	1.476061	
89764.534309	1.457388	
89764.536309	1.435797	
89764.538309	1.413688	
89764.540309	1.390371	
89764.542309	1.363615	
89764.546307	1.335319	
89764.550307	1.272930	
89764.552309	1.211294	
89764.554309	1.180208	
89764.556309	1.144330	
89764.558309	1.107786	
89764.560309	1.071260	
89764.562310	1.035538	
89764.564309	0.998576	
89764.568309	0.960047	
89764.570309	0.885870	
89764.572309	0.850347	
89764.574311	0.815902	
89764.576313	0.780033	
89764.578312	0.747185	
89764.580313	0.713359	
89764.582314	0.679959	
89764.584313	0.646438	
89764.588315	0.614234	
89764.592315	0.553439	
89764.594315	0.496989	
89764.596316	0.470233	
89764.598314	0.444927	
89764.600315	0.418129	
89764.602314	0.397763	
89764.606313	0.377226	
89764.608315	0.332097	
89764.612316	0.311310	
89764.614315	0.274569	
89764.616315	0.256021	
89764.618315	0.239671	
89764.620315	0.222796	
89764.622315	0.207570	
89764.624316	0.192325	
89764.628323	0.175930	
89764.632322	0.152376	
89764.634323	0.129178	
89764.636323	0.118470	
89764.638323	0.107864	
89764.640323	0.098882	
89764.642323	0.089813	
89764.644323	0.080247	
89764.648326	0.073540	
89764.652327	0.056736	
89764.654327	0.047400	
89764.656327	0.040637	
89764.658327	0.035320	
89764.660327	0.030413	
89764.662327	0.025439	
89764.664327	0.021397	
89764.668326	0.017364	
89764.670328	0.008476	
89764.672327	0.005116	
89764.674330	0.002933	
89764.676329	0.000109	
89764.678329	-0.001875	
89764.680329	-0.003957	
89764.682329	-0.006764	
89764.684329	-0.007917	
89764.688327	-0.011608	
89764.692329	-0.016527	
89764.694329	-0.016852	
89764.696329	-0.018036	
89764.698329	-0.020268	
89764.700329	-0.020576	
89764.702329	-0.021224	
89764.706327	-0.023710	
89764.710327	-0.027421	
89764.712329	-0.027026	
89764.714329	-0.026113	
89764.716330	-0.025155	
89764.720327	-0.028214	
89764.722328	-0.026910	
89764.724328	-0.031853	
89764.728328	-0.031586	
89764.732329	-0.029429	
89764.734329	-0.029058	
89764.736332	-0.029556	
89764.738329	-0.029760	
89764.740329	-0.030291	
89764.742329	-0.029341	
89764.744329	-0.030855	
89764.748327	-0.031295	
89764.752328	-0.031309	
89764.754329	-0.030713	
89764.756330	-0.030134	
89764.758329	-0.030381	
89764.760329	-0.030936	
89764.762329	-0.030782	
89764.764329	-0.030631	
89764.768334	-0.031133	
89764.772335	-0.032493	
89764.774335	-0.031402	
89764.776335	-0.029945	
89764.778334	-0.030540	
89764.780335	-0.029135	
89764.782335	-0.028406	
89764.784334	-0.028625	
89764.788334	-0.029748	
89764.792334	-0.029744	
89764.794336	-0.028314	
89764.796334	-0.028509	
89764.798335	-0.028523	
89764.800335	-0.027029	
89764.802335	-0.026000	
89764.804335	-0.028430	
89764.808335	-0.028899	
89764.812335	-0.029570	
89764.814335	-0.026872	
89764.816336	-0.025316	
89764.818334	-0.026517	
89764.820335	-0.026222	
89764.822336	-0.025678	
89764.826333	-0.026340	
89764.830333	-0.026296	
89764.832339	-0.025726	
89764.834339	-0.023614	
89764.836339	-0.023012	
89764.838339	-0.024480	
89764.840338	-0.023907	
89764.842340	-0.023405	
89764.844339	-0.023365	
89764.848338	-0.025610	
89764.852338	-0.021885	
89764.854338	-0.021865	
89764.856339	-0.021291	
89764.858339	-0.021704	
89764.860339	-0.021717	
89764.862339	-0.022012	
89764.864339	-0.022120	
89764.868339	-0.021287	
89764.872339	-0.020810	
89764.874339	-0.019966	
89764.876339	-0.021313	
89764.878339	-0.018931	
89764.880339	-0.018196	
89764.882339	-0.018836	
89764.884338	-0.019316	
89764.888337	-0.019123	
89764.892338	-0.018158	
89764.894339	-0.016462	
89764.896339	-0.018277	
89764.898339	-0.016968	
89764.900339	-0.016502	
89764.902339	-0.015893	
89764.904339	-0.017295	
89764.906341	-0.017644	
89764.910347	-0.018547	
89764.912347	-0.018246	
89764.914347	-0.016175	
89764.916347	-0.015632	
89764.918348	-0.013629	
89764.920345	-0.015495	
89764.922347	-0.014658	
89764.924347	-0.015380	
89764.926348	-0.016051	
89764.930346	-0.015765	
89764.932349	-0.015305	
89764.934347	-0.014098	
89764.936347	-0.014267	
89764.938347	-0.014479	
89764.940347	-0.013258	
89764.942347	-0.014454	
89764.946345	-0.013614	
89764.948348	-0.015445	
89764.950346	-0.012977	
89764.954347	-0.012631	
89764.956347	-0.011378	
89764.958347	-0.012554	
89764.960347	-0.012324	
89764.962348	-0.011521	
89764.966345	-0.010829	
89764.968347	-0.011916	
89764.970347	-0.013749	
89764.972347	-0.013440	
89764.974350	-0.010577	
89764.976361	-0.011648	
89764.978361	-0.010868	
89764.980361	-0.008974	
89764.982361	-0.009176	
89764.986360	-0.008745	
89764.988361	-0.011764	
89764.992361	-0.010877	
89764.994361	-0.008951	
89764.996361	-0.008605	
89764.998361	-0.007939	
89765.000361	-0.007150	
89765.002361	-0.006681	
89765.006359	-0.007798	
89765.010360	-0.009087	
89765.012361	-0.009248	
89765.014361	-0.006947	
89765.016361	-0.005599	
89765.018361	-0.005540	
89765.020361	-0.006499	
89765.022361	-0.006349	
89765.024363	-0.005382	
89765.026361	-0.007568	
89765.030361	-0.008018	
89765.032362	-0.005866	
89765.034361	-0.005631	
89765.036361	-0.003586	
89765.038361	-0.003820	
89765.040361	-0.005669	
89765.042362	-0.004934	
89765.046359	-0.004545	
89765.048360	-0.004216	
89765.050361	-0.004059	
89765.052362	-0.003908	
89765.054364	-0.003539	
89765.056371	-0.003729	
89765.058371	-0.003596	
89765.060371	-0.003176	
89765.062371	-0.002423	
89765.066369	-0.002787	
89765.070369	-0.003186	
89765.072371	-0.003366	
89765.074371	-0.001761	
89765.076372	-0.002582	
89765.078372	-0.001164	
89765.080371	-0.000379	
89765.082371	-0.001715	
89765.084371	0.000014	
89765.088370	-0.000602	
89765.092370	-0.001978	
89765.094370	0.000279	
89765.096371	0.001636	
89765.098371	0.000975	
89765.100371	0.001901	
89765.102371	0.002927	
89765.104371	0.001058	
89765.108371	0.000233	
89765.110371	0.000723	
89765.112371	0.000734	
89765.114371	0.001567	
89765.116371	0.002595	
89765.118370	0.001690	
89765.120371	0.003120	
89765.122371	0.004096	
89765.124372	0.002442	
89765.128370	0.002501	
89765.132373	0.003676	
89765.134371	0.004645	
89765.136371	0.005424	
89765.138371	0.005449	
89765.140370	0.005120	
89765.142371	0.005068	
89765.144371	0.004984	
89765.148377	0.005839	
89765.152379	0.005010	
89765.154379	0.005594	
89765.156379	0.006310	
89765.158379	0.006274	
89765.160379	0.005746	
89765.162378	0.008069	
89765.164378	0.005492	
89765.168377	0.005635	
89765.172379	0.005330	
89765.174379	0.007648	
89765.176379	0.007763	
89765.178379	0.007486	
89765.180377	0.007802	
89765.182378	0.007134	
89765.184379	0.007087	
89765.188379	0.005565	
89765.192379	0.006532	
89765.194378	0.007081	
89765.196379	0.007856	
89765.198379	0.007987	
89765.200379	0.007198	
89765.202379	0.008073	
89765.204379	0.006154	
89765.208379	0.005111	
89765.212379	0.003455	
89765.214379	0.005778	
89765.216379	0.003690	
89765.218379	0.004574	
89765.220379	0.003906	
89765.222379	0.002251	
89765.224379	0.000412	
89765.228384	-0.000799	
89765.232385	-0.002590	
89765.234385	-0.003622	
89765.236390	-0.002986	
89765.238391	-0.005088	
89765.240391	-0.006093	
89765.242391	-0.008706	
89765.244391	-0.009979	
89765.248389	-0.012904	
89765.252391	-0.015892	
89765.254390	-0.020203	
89765.256391	-0.021885	
89765.258394	-0.022890	
89765.260391	-0.028092	
89765.262391	-0.028060	
89765.264391	-0.034208	
89765.266390	-0.037170	
89765.270389	-0.040162	
89765.272392	-0.049024	
89765.274391	-0.051747	
89765.276392	-0.056281	
89765.278391	-0.060744	
89765.280392	-0.064310	
89765.282391	-0.071107	
89765.284391	-0.076455	
89765.286391	-0.083768	
89765.290395	-0.092253	
89765.292397	-0.106394	
89765.294397	-0.113166	
89765.296397	-0.120612	
89765.298397	-0.129610	
89765.300396	-0.139186	
89765.302399	-0.147371	
89765.304397	-0.159875	
89765.306397	-0.173899	
89765.310401	-0.185409	
89765.312403	-0.211736	
89765.314403	-0.224491	
89765.316402	-0.238320	
89765.318403	-0.254081	
89765.320403	-0.272305	
89765.322402	-0.289926	
89765.326401	-0.309923	
89765.328403	-0.350682	
89765.330403	-0.371857	
89765.332404	-0.395928	
89765.334404	-0.418734	
89765.336405	-0.438240	
89765.338409	-0.463143	
89765.340411	-0.492205	
89765.342411	-0.520572	
89765.346409	-0.550582	
89765.348411	-0.616095	
89765.352411	-0.648268	
89765.354411	-0.718346	
89765.356411	-0.755845	
89765.358411	-0.794457	
89765.360411	-0.832111	
89765.362411	-0.872000	
89765.366409	-0.912424	
89765.370409	-0.995113	
89765.372411	-1.080500	
89765.374415	-1.121235	
89765.376413	-1.163112	
89765.378413	-1.206460	
89765.380415	-1.246624	
89765.382413	-1.279619	
89765.386411	-1.319665	
89765.390411	-1.400643	
89765.392413	-1.471404	
89765.394414	-1.502975	
89765.396414	-1.532675	
89765.398413	-1.561483	
89765.400413	-1.586270	
89765.402413	-1.610416	
89765.406411	-1.632096	
89765.408413	-1.657649	
89765.410413	-1.657905	
89765.414413	-1.657655	
89765.416413	-1.658058	
89765.418413	-1.657674	
89765.420413	-1.658263	
89765.422413	-1.652927	
89765.426411	-1.635235	
89765.428413	-1.594632	
89765.430413	-1.566984	
89765.434413	-1.535824	
89765.436413	-1.464997	
89765.438415	-1.427521	
89765.440415	-1.383666	
89765.442413	-1.338256	
89765.446412	-1.293479	
89765.448413	-1.202942	
89765.450412	-1.150974	
89765.454413	-1.098640	
89765.456413	-0.990299	
89765.458413	-0.933181	
89765.460413	-0.876891	
89765.462414	-0.820358	
89765.466411	-0.760743	
89765.468412	-0.644559	
89765.470414	-0.586384	
89765.474413	-0.526780	
89765.476413	-0.410634	
89765.478413	-0.355028	
89765.480414	-0.294418	
89765.482413	-0.234995	
89765.486411	-0.173524	
89765.488413	-0.064864	
89765.490413	-0.003705	
89765.494412	0.054486	
89765.496413	0.163306	
89765.498413	0.220855	
89765.500413	0.276322	
89765.502413	0.328186	
89765.506411	0.378017	
89765.508413	0.475505	
89765.510413	0.525162	
89765.514413	0.574761	
89765.516413	0.674845	
89765.518413	0.724434	
89765.520413	0.767973	
89765.522413	0.813322	
89765.526411	0.862856	
89765.528413	0.949127	
89765.530413	0.992596	
89765.534412	1.037400	
89765.536414	1.119763	
89765.538413	1.157406	
89765.540418	1.197546	
89765.542413	1.229278	
89765.546411	1.262666	
89765.548413	1.329846	
89765.550413	1.361193	
89765.554413	1.387927	
89765.556413	1.440929	
89765.558413	1.466135	
89765.560413	1.485457	
89765.562413	1.507511	
89765.566411	1.525196	
89765.568413	1.548045	
89765.570413	1.555588	
89765.574413	1.560200	
89765.576413	1.561934	
89765.578412	1.557909	
89765.580413	1.551395	
89765.582413	1.540855	
89765.586411	1.527964	
89765.588414	1.486762	
89765.590415	1.462346	
89765.594412	1.437473	
89765.596413	1.383261	
89765.598413	1.352213	
89765.600413	1.317344	
89765.602413	1.282660	
89765.606412	1.244015	
89765.608413	1.170586	
89765.610413	1.129741	
89765.614413	1.089132	
89765.616414	1.005473	
89765.618412	0.963834	
89765.620413	0.920073	
89765.622413	0.878326	
89765.626411	0.836826	
89765.628413	0.754160	
89765.630414	0.716592	
89765.634413	0.678945	
89765.636413	0.607525	
89765.638413	0.573856	
89765.640413	0.539431	
89765.642413	0.506987	
89765.646415	0.478757	
89765.648417	0.418428	
89765.650418	0.394894	
89765.654417	0.374701	
89765.656417	0.326255	
89765.658417	0.305036	
89765.660417	0.284404	
89765.662417	0.265413	
89765.666416	0.247441	
89765.668417	0.210629	
89765.670417	0.196604	
89765.674417	0.180976	
89765.676417	0.157345	
89765.678417	0.145726	
89765.680417	0.134418	
89765.682417	0.124052	
89765.686415	0.113429	
89765.688416	0.093849	
89765.690419	0.086434	
89765.692417	0.077961	
89765.694418	0.073067	
89765.696417	0.065613	
89765.698416	0.060229	
89765.700417	0.054937	
89765.702418	0.049478	
89765.706415	0.043107	
89765.710415	0.032406	
89765.712417	0.027649	
89765.714416	0.022157	
89765.716416	0.019987	
89765.718418	0.014785	
89765.720417	0.012761	
89765.722417	0.009911	
89765.724417	0.007107	
89765.728416	0.003071	
89765.732417	-0.000376	
89765.734417	-0.002320	
89765.736418	-0.004634	
89765.738418	-0.006755	
89765.740417	-0.008923	
89765.742422	-0.008553	
89765.744417	-0.012394	
89765.748422	-0.015035	
89765.752423	-0.018149	
89765.754423	-0.018157	
89765.756423	-0.019947	
89765.758426	-0.021177	
89765.760422	-0.021161	
89765.762424	-0.022287	
89765.764423	-0.023144	
89765.766421	-0.025555	
89765.770422	-0.025139	
89765.772423	-0.027129	
89765.774424	-0.027249	
89765.776423	-0.027790	
89765.778422	-0.026954	
89765.780423	-0.027273	
89765.782423	-0.029230	
89765.784423	-0.027756	
89765.786423	-0.029292	
89765.790423	-0.031988	
89765.792424	-0.031501	
89765.794425	-0.030499	
89765.796425	-0.028820	
89765.798424	-0.029458	
89765.800426	-0.030842	
89765.802424	-0.030568	
89765.804425	-0.031510	
89765.806424	-0.031856	
89765.810425	-0.032208	
89765.812425	-0.031372	
89765.814425	-0.031813	
89765.816425	-0.029905	
89765.818427	-0.029776	
89765.820425	-0.028880	
89765.822425	-0.028637	
89765.826423	-0.030535	
89765.828424	-0.030785	
89765.830425	-0.029790	
89765.834425	-0.031319	
89765.836426	-0.028610	
89765.838425	-0.029117	
89765.840428	-0.028389	
89765.842425	-0.028791	
89765.846425	-0.026662	
89765.848427	-0.029557	
89765.850427	-0.028542	
89765.854427	-0.027867	
89765.856428	-0.027303	
89765.858427	-0.026134	
89765.860427	-0.025038	
89765.862427	-0.026006	
89765.866425	-0.024865	
89765.868427	-0.025201	
89765.870427	-0.025991	
89765.872427	-0.026519	
89765.874434	-0.023954	
89765.876445	-0.023013	
89765.878445	-0.023519	
89765.880447	-0.022231	
89765.882446	-0.022581	
89765.886444	-0.022618	
89765.890443	-0.023394	
89765.892446	-0.023584	
89765.894444	-0.020992	
89765.896445	-0.019687	
89765.898445	-0.020928	
89765.900445	-0.019865	
89765.902445	-0.020193	
89765.904445	-0.020388	
89765.908450	-0.024098	
89765.910451	-0.020540	
89765.912451	-0.022496	
89765.914451	-0.020688	
89765.916455	-0.019416	
89765.918450	-0.018540	
89765.920452	-0.019704	
89765.922451	-0.018021	
89765.924452	-0.019233	
89765.928455	-0.020950	
89765.932456	-0.018641	
89765.934457	-0.018692	
89765.936457	-0.017073	
89765.938457	-0.017744	
89765.940457	-0.018468	
89765.942457	-0.017018	
89765.944458	-0.018169	
89765.946460	-0.017542	
89765.950461	-0.018964	
89765.952462	-0.017438	
89765.954462	-0.018037	
89765.956460	-0.017200	
89765.958461	-0.015985	
89765.960461	-0.015567	
89765.962461	-0.015135	
89765.964462	-0.014098	
89765.966461	-0.016549	
89765.970461	-0.015745	
89765.972460	-0.014999	
89765.974461	-0.015147	
89765.976461	-0.014523	
89765.978461	-0.013047	
89765.980461	-0.012392	
89765.982461	-0.012602	
89765.986459	-0.012585	
89765.988461	-0.014677	
89765.990460	-0.014215	
89765.992461	-0.014531	
89765.994462	-0.012756	
89765.996461	-0.010780	
89765.998460	-0.011481	
89766.000461	-0.010377	
89766.002461	-0.010505	
89766.006459	-0.011101	
89766.010460	-0.013062	
89766.012461	-0.010975	
89766.014461	-0.008974	
89766.016461	-0.008792	
89766.018461	-0.008314	
89766.020460	-0.009102	
89766.022461	-0.008874	
89766.024462	-0.008379	
89766.028461	-0.011795	
89766.032461	-0.009264	
89766.034461	-0.007042	
89766.036460	-0.007273	
89766.038461	-0.007168	
89766.040463	-0.006587	
89766.042461	-0.008038	
89766.044462	-0.007917	
89766.048461	-0.007498	
89766.050461	-0.007276	
89766.052461	-0.007939	
89766.054462	-0.006551	
89766.056464	-0.005768	
89766.058462	-0.005554	
89766.060463	-0.006242	
89766.062463	-0.005562	
89766.064463	-0.004857	
89766.068464	-0.005036	
89766.072464	-0.005085	
89766.074464	-0.003311	
89766.076465	-0.003772	
89766.078466	-0.004604	
89766.080465	-0.002099	
89766.082465	-0.004149	
89766.084464	-0.002263	
89766.088466	-0.004712	
89766.092466	-0.005378	
89766.094468	-0.003776	
89766.096467	-0.002100	
89766.098467	-0.002159	
89766.100467	-0.001565	
89766.102468	-0.000247	
89766.104466	-0.002493	
89766.108467	-0.003004	
89766.112467	-0.001635	
89766.114468	-0.000139	
89766.116467	0.000197	
89766.118466	0.001022	
89766.120467	0.000690	
89766.122467	0.001454	
89766.124466	-0.001073	
89766.128475	-0.000936	
89766.132476	-0.000700	
89766.134477	0.002954	
89766.136478	0.002916	
89766.140475	0.002622	
89766.142477	0.003206	
89766.144477	0.002068	
89766.148489	0.002703	
89766.152492	0.002822	
89766.154493	0.004490	
89766.156495	0.005988	
89766.158493	0.005504	
89766.160493	0.004597	
89766.162492	0.005448	
89766.164493	0.005294	
89766.168491	0.005329	
89766.172493	0.004216	
89766.174493	0.006717	
89766.176495	0.006292	
89766.178493	0.005875	
89766.180493	0.008049	
89766.182493	0.006766	
89766.184493	0.006551	
89766.188493	0.005681	
89766.192493	0.006162	
89766.194493	0.006529	
89766.196493	0.007303	
89766.198493	0.007675	
89766.200493	0.008705	
89766.202493	0.006805	
89766.204493	0.006191	
89766.208493	0.006067	
89766.210493	0.006201	
89766.212493	0.005490	
89766.214497	0.007946	
89766.216499	0.007611	
89766.218499	0.009335	
89766.220499	0.008320	
89766.222499	0.006931	
89766.224499	0.008174	
89766.228499	0.005034	
89766.232499	0.006833	
89766.234499	0.008369	
89766.236499	0.007571	
89766.238498	0.005510	
89766.240501	0.007412	
89766.242499	0.004922	
89766.244499	0.004219	
89766.248505	0.004938	
89766.252507	0.001489	
89766.254508	0.003178	
89766.256508	0.001896	
89766.258507	0.001287	
89766.260506	-0.000050	
89766.262507	-0.000415	
89766.264507	-0.002370	
89766.268505	-0.002576	
89766.272506	-0.004374	
89766.274507	-0.006632	
89766.276507	-0.008000	
89766.278507	-0.010912	
89766.280508	-0.009956	
89766.282507	-0.014150	
89766.284506	-0.016251	
89766.288514	-0.019884	
89766.292515	-0.025387	
89766.294515	-0.029603	
89766.296514	-0.033743	
89766.298516	-0.034844	
89766.300515	-0.038279	
89766.302515	-0.042615	
89766.304514	-0.047329	
89766.308515	-0.053510	
89766.312515	-0.063408	
89766.314515	-0.070127	
89766.316515	-0.076961	
89766.318517	-0.086520	
89766.320515	-0.091547	
89766.322515	-0.099395	
89766.324515	-0.107112	
89766.328515	-0.117067	
89766.332516	-0.134153	
89766.334515	-0.152593	
89766.336515	-0.164033	
89766.338515	-0.176462	
89766.340515	-0.190195	
89766.342516	-0.201335	
89766.344515	-0.215505	
89766.348520	-0.229492	
89766.352521	-0.261839	
89766.354521	-0.295363	
89766.356521	-0.313486	
89766.358521	-0.334633	
89766.360522	-0.354457	
89766.362521	-0.374474	
89766.364521	-0.397657	
89766.368521	-0.421728	
89766.372521	-0.466372	
89766.374521	-0.518445	
89766.376521	-0.544785	
89766.378520	-0.576449	
89766.380521	-0.606813	
89766.382521	-0.638407	
89766.384521	-0.669806	
